
# Total neutron yield = 0.0  n/decay
	 na23 0.0
# Integral of spectrum = 9.314120751634769e-07  n/decay
100 0.0
200 0.0
300 0.0
400 0.0
500 0.0
600 0.0
700 0.0
800 0.0
900 0.0
1000 0.0
1100 0.0
1200 0.0
1300 0.0
1400 0.0
1500 0.0
1600 0.0
1700 0.0
1800 0.0
1900 0.0
2000 0.0
2100 0.0
2200 0.0
2300 0.0
2400 0.0
2500 0.0
2600 0.0
2700 0.0
2800 0.0
2900 0.0
3000 0.0
3100 0.0
3200 0.0
3300 0.0
3400 0.0
3500 0.0
3600 0.0
3700 0.0
3800 0.0
3900 0.0
4000 0.0
4100 0.0
4200 0.0
4300 0.0
4400 0.0
4500 0.0
4600 0.0
4700 0.0
4800 0.0
4900 0.0
5000 0.0
5100 0.0
5200 0.0
5300 0.0
5400 0.0
5500 0.0
5600 1.0468692029657204e-11
5700 2.9126497774453026e-11
5800 5.970866380333866e-11
5900 9.755574525371858e-11
6000 1.448384221293514e-10
6100 1.8927574255941695e-10
6200 2.3808785022982556e-10
6300 2.836929401132018e-10
6400 3.31691939613462e-10
6500 3.739772272910617e-10
6600 4.184340906939943e-10
6700 4.573981950237516e-10
6800 4.691250578986266e-10
6900 4.5646739098229195e-10
7000 4.456714875666846e-10
7100 4.365509231673487e-10
7200 4.289447217154159e-10
7300 4.2271418933344115e-10
7400 4.1507560311611647e-10
7500 4.03533370357972e-10
7600 3.8879512277637436e-10
7700 3.7197448658329605e-10
7800 3.520161968308087e-10
7900 3.2633582165850387e-10
8000 3.008492813206711e-10
8100 2.723902271311051e-10
8200 2.461687831792661e-10
8300 2.1657082274132806e-10
8400 1.891247947915142e-10
8500 1.6160716828337754e-10
8600 1.314129221515571e-10
8700 1.04214514539333e-10
8800 7.414960691240303e-11
8900 4.6818842092659244e-11
9000 1.9353409989443534e-11
9100 0.0
9200 0.0
9300 0.0
9400 0.0
9500 0.0
9600 0.0
9700 0.0
9800 0.0
9900 0.0
10000 0.0
10100 0.0
10200 0.0
10300 0.0
10400 0.0
10500 0.0
10600 0.0
10700 0.0
10800 0.0
10900 0.0
11000 0.0
11100 0.0
11200 0.0
11300 0.0
11400 0.0
11500 0.0
11600 0.0
11700 0.0
11800 0.0
11900 0.0
12000 0.0
12100 0.0
12200 0.0
12300 0.0
12400 0.0
12500 0.0
12600 0.0
12700 0.0
12800 0.0
12900 0.0
13000 0.0
13100 0.0
13200 0.0
13300 0.0
13400 0.0
13500 0.0
13600 0.0
13700 0.0
13800 0.0
13900 0.0
14000 0.0
14100 0.0
14200 0.0
14300 0.0
14400 0.0
14500 0.0
14600 0.0
14700 0.0
14800 0.0
14900 0.0
15000 0.0
